Fixed strain rate: 0.01
'Temp'	'150.0 (C)'	'700.0 (C)'	'750.0 (C)'	'800.0 (C)'	'850.0 (C)'	'900.0 (C)'	'950.0 (C)'	'1000.0 (C)'	'1050.0 (C)'	'1100.0 (C)'	'1150.0 (C)'	'1200.0 (C)'	'1250.0 (C)'
0.0	326.133	263.976	262.167	260.555	259.108	257.804	204.5461	148.2156	109.0703	81.3988	61.5043	47.0135	36.1317
0.02	532.3893	392.3293	378.5065	364.2987	349.7579	286.5312	204.5459	148.2155	109.0702	81.3988	61.5043	47.0135	36.1317
0.04	617.0195	440.8465	421.7735	402.1909	382.2163	286.5254	204.5417	148.2124	109.068	81.3971	61.503	47.0125	36.131
0.06	672.6315	472.16	449.5031	426.2869	402.6803	286.4993	204.5231	148.199	109.0582	81.3897	61.4973	47.0084	36.1277
0.08	715.1028	495.7751	470.3237	444.2913	406.5749	286.4294	204.4732	148.1631	109.0319	81.3698	61.4822	46.9971	36.1191
0.1	749.8843	514.9281	487.156	458.7949	406.3681	286.2839	204.3692	148.0883	108.9765	81.3284	61.4506	46.9724	36.1011
0.12	779.555	531.1387	501.3662	471.0047	406.0024	286.0266	204.1854	147.955	108.8768	81.2553	61.3949	46.9285	36.0694
0.14	805.5553	545.2501	513.7101	481.5862	405.4223	285.6172	203.8946	147.742	108.7197	81.1406	61.3073	46.8591	36.0201
0.16	828.7777	557.7819	524.6526	490.9475	404.5809	285.026	203.4697	147.4342	108.4925	80.9746	61.1814	46.7582	35.9434
0.18	849.8164	569.0781	534.5007	499.358	403.4726	284.2439	202.9142	147.0336	108.1967	80.7475	61.0186	46.6258	35.8388
0.2	869.0882	579.3792	543.4688	507.0051	402.077	283.2595	202.2102	146.52	107.822	80.4646	60.8006	46.4611	35.7073
0.22	886.898	588.8602	551.7125	514.0248	400.417	282.0923	201.3748	145.9191	107.3737	80.1368	60.5435	46.2703	35.5532
0.24	903.4755	597.6525	559.3487	520.519	398.5341	280.7645	200.4272	145.2299	106.8725	79.7566	60.2599	46.0625	35.383
0.26	918.9988	605.8577	566.4676	526.5663	396.4712	279.3106	199.3895	144.4757	106.3145	79.3401	59.958	45.8164	35.2048
0.28	933.6088	613.5558	573.1401	532.2283	394.275	277.7634	198.2851	143.6757	105.7257	78.9081	59.6104	45.5507	35.027
0.3	947.4192	620.8112	579.4234	537.5547	391.9891	276.152	197.1361	142.8443	105.1155	78.439	59.2654	45.2874	34.8072
0.32	960.5227	627.6764	585.3638	542.5859	389.6417	274.4979	195.9592	141.9942	104.4791	77.9847	58.9219	45.0356	34.5831
0.34	972.9967	634.1949	590.9998	547.3552	387.2707	272.8295	194.7625	141.1259	103.8493	77.493	58.5458	44.7435	34.3694
0.36	984.9057	640.4032	596.3636	550.4728	384.897	271.1561	193.5657	140.2567	103.2094	77.0331	58.1935	44.4585	34.1708
0.38	996.3049	646.332	601.4824	547.0967	382.5328	269.4896	192.3779	139.3937	102.5713	76.5434	57.8396	44.1952	33.9856
0.4	1007.2411	652.0077	606.3794	543.7557	380.1989	267.8471	191.2054	138.5419	101.957	76.0885	57.4723	43.9414	33.748
0.42	1017.755	657.4529	611.0747	540.4655	377.9	266.2256	190.0524	137.7054	101.3283	75.6153	57.1375	43.6502	33.5287
0.44	1027.882	662.6873	615.5856	537.2373	375.6399	264.6334	188.9162	136.8875	100.7243	75.1703	56.7923	43.3845	33.3291
0.46	1037.6528	667.7282	619.9272	534.0796	373.4306	263.0811	187.8022	136.0833	100.1365	74.7237	56.4464	43.1449	33.1498
0.48	1047.0947	672.5905	624.1128	530.9848	371.267	261.5517	186.7118	135.2878	99.5472	74.2883	56.1337	42.9034	32.984
0.5	1056.2318	677.2878	628.1542	527.9648	369.1569	260.069	185.649	134.516	98.9981	73.8757	55.8116	42.6353	32.7639
0.6	1098.0238	698.6727	646.5275	513.9596	359.3618	253.1679	180.7244	130.9583	96.3539	71.9182	54.3177	41.495	31.913
0.7	1134.6459	717.2815	662.4823	501.6441	350.7537	247.104	176.3923	127.8142	94.0586	70.1848	53.0405	40.4969	31.1314
0.8	1167.3552	733.8026	676.622	490.7766	343.1553	241.7472	172.5698	125.0506	92.0234	68.6558	51.8828	39.6206	30.4234
0.9	1196.9887	748.6918	686.6465	481.1074	336.391	236.9895	169.1734	122.5735	90.1972	67.3016	50.8566	38.8625	29.8594
1.0	1224.1336	762.2672	674.2671	472.4306	330.3261	232.7098	166.1247	120.3633	88.5628	66.1019	49.9506	38.1525	29.2868
1.1	1249.2191	774.76	663.078	464.5899	324.8462	228.8502	163.3612	118.3649	87.1059	65.015	49.1101	37.4942	28.8255
1.2	1272.569	786.3441	652.8905	457.4519	319.8553	225.3303	160.857	116.5449	85.7596	64.0159	48.3331	36.9669	28.3474
1.3	1294.434	797.1537	643.5561	450.9162	315.2811	222.1138	158.5505	114.8898	84.5258	63.091	47.6424	36.3871	28.0093
1.4	1315.0126	807.2944	634.9615	444.8921	311.0727	219.1456	156.432	113.3443	83.3963	62.2339	47.0378	35.9476	27.5646
1.5	1334.4648	816.8514	627.0019	439.3121	307.1709	216.3935	154.4703	111.9363	82.3511	61.4443	46.4093	35.4459	27.2292
1.6	1352.9216	825.8938	619.5954	434.1271	303.5409	213.8428	152.6474	110.6002	81.3774	60.7263	45.8902	35.0693	26.9593
1.7	1370.4914	834.4792	612.683	429.2817	300.1575	211.4519	150.9547	109.366	80.4676	60.066	45.3493	34.6413	26.5936
1.8	1387.2657	842.6556	606.2056	424.743	296.9874	209.219	149.3475	108.2142	79.6181	59.4043	44.8988	34.2746	26.3101
1.9	1403.3217	850.4636	600.1166	420.4746	294.0041	207.1199	147.8533	107.1312	78.8285	58.823	44.4145	33.9805	26.0888
2.0	1418.7256	857.9379	594.371	416.4504	291.1857	205.1369	146.4305	106.1073	78.0802	58.2503	44.0312	33.5987	25.8303
2.1	1433.5348	865.1085	588.9432	412.6458	288.5222	203.2593	145.1016	105.1358	77.3489	57.7181	43.5877	33.2929	25.553
2.2	1447.7988	872.0014	583.7941	409.0431	286.0079	201.4802	143.8306	104.2123	76.6745	57.2153	43.2166	33.0463	25.3288
2.3	1461.5612	878.6391	578.9051	405.6125	283.6049	199.7964	142.6196	103.3344	76.0508	56.7344	42.8709	32.7349	25.1464
2.4	1474.8604	885.0417	574.2481	402.3508	281.3247	198.1897	141.4715	102.5011	75.4161	56.274	42.4947	32.4511	24.9943
2.5	1487.7303	891.2268	569.8083	399.2406	279.1521	196.654	140.3781	101.7125	74.8472	55.8531	42.1834	32.2163	24.7413
2.6	1500.2012	897.21	565.5641	396.2675	277.0755	195.1926	139.3333	100.9703	74.2793	55.4158	41.8841	32.0212	24.5298
2.7	1512.3	903.0053	561.5038	393.4216	275.086	193.791	138.3329	100.2313	73.749	55.0492	41.5504	31.75	24.3525
2.8	1524.051	908.6253	557.611	390.6947	273.1766	192.4433	137.3728	99.5303	73.2364	54.6391	41.2688	31.5073	24.203
2.9	1535.4763	914.0812	553.8771	388.0801	271.3435	191.159	136.4514	98.8763	72.7462	54.2749	41.0303	31.3014	24.0765
3.0	1546.5954	919.3833	550.2837	385.5595	269.5834	189.9225	135.5666	98.2278	72.2712	53.9503	40.7309	31.126	23.9338
3.1	1557.4266	924.5408	546.828	383.1404	267.8949	188.7233	134.7178	97.6055	71.8255	53.5781	40.4597	30.9568	23.7375
3.2	1567.9861	929.5621	543.495	380.8055	266.2594	187.5712	133.9048	97.0298	71.3747	53.2576	40.2261	30.7248	23.5682
3.3	1578.289	934.455	540.283	378.5523	264.6847	186.4621	133.1119	96.4358	70.9808	52.9728	40.0244	30.524	23.4217
3.4	1588.3489	939.2264	537.1813	376.3786	263.1672	185.3916	132.3388	95.8968	70.5437	52.6339	39.7627	30.3495	23.2945
3.5	1598.1786	943.8828	534.1821	374.278	261.6955	184.3568	131.599	95.3477	70.1627	52.3383	39.522	30.1976	23.1837
3.6	1607.7896	948.4301	531.2796	372.2453	260.2741	183.3554	130.8942	94.8393	69.7787	52.0799	39.3114	30.0648	23.0869
3.7	1617.1928	952.8739	528.4695	370.2765	258.9016	182.3853	130.197	94.3284	69.3991	51.7914	39.1266	29.9052	23.0022
3.8	1626.3979	957.2191	525.7475	368.3674	257.5621	181.4447	129.5199	93.8522	69.0647	51.5076	38.9426	29.7166	22.84
3.9	1635.4144	961.4706	523.1071	366.5164	256.2694	180.5329	128.8794	93.3692	68.6992	51.2567	38.713	29.5499	22.694
4.0	1644.2506	965.6326	520.541	364.7212	255.02	179.6494	128.2416	92.9286	68.358	51.0345	38.5094	29.402	22.5644

