Fixed strain rate: 0.0010
'Temp'	'150.0 (C)'	'700.0 (C)'	'750.0 (C)'	'800.0 (C)'	'850.0 (C)'	'900.0 (C)'	'950.0 (C)'	'1000.0 (C)'	'1050.0 (C)'	'1100.0 (C)'	'1150.0 (C)'	'1200.0 (C)'	'1250.0 (C)'
0.0	318.71	257.967	256.199	254.624	228.7145	161.1282	115.0254	83.3446	61.3298	45.7707	34.5793	26.424	20.3052
0.02	522.2706	384.4792	370.8525	327.1068	228.7157	161.129	115.026	83.345	61.3301	45.7709	34.5795	26.4241	20.3053
0.04	605.9915	432.2789	413.4665	327.1016	228.712	161.1264	115.0242	83.3437	61.3291	45.7702	34.5789	26.4237	20.305
0.06	661.0557	463.1613	440.805	327.0717	228.6909	161.1117	115.0137	83.3361	61.3235	45.7658	34.5756	26.4211	20.303
0.08	703.1329	486.464	461.3428	326.994	228.6363	161.0736	114.9863	83.3162	61.3088	45.7546	34.567	26.4145	20.2978
0.1	737.6063	505.3707	466.4396	326.8163	228.5123	160.987	114.9233	83.2712	61.2757	45.729	34.5476	26.3995	20.2861
0.12	767.024	521.3773	465.9912	326.501	228.2925	160.8305	114.8112	83.1916	61.2171	45.6836	34.5131	26.373	20.2657
0.14	792.8099	535.3143	465.2816	326.0057	227.9464	160.5844	114.6349	83.0669	61.1253	45.6122	34.459	26.3316	20.2338
0.16	815.8462	547.6934	464.2627	325.2903	227.4452	160.2331	114.3831	82.8837	60.9949	45.5099	34.3819	26.273	20.1892
0.18	836.7207	558.8538	462.9079	324.3403	226.7817	159.765	114.0528	82.6372	60.8105	45.3756	34.2812	26.1971	20.132
0.2	855.8457	569.0325	461.2249	323.1622	225.9589	159.1844	113.6333	82.3357	60.5838	45.2127	34.1599	26.1066	20.065
0.22	873.5228	578.4019	459.2303	321.7642	224.9821	158.4935	113.1442	81.9877	60.321	45.0269	34.0226	26.0055	19.9876
0.24	889.9792	587.0917	456.9799	320.1867	223.8776	157.7169	112.5849	81.5745	60.0358	44.7949	33.8444	25.8629	19.8726
0.26	905.3913	595.2021	454.5241	318.466	222.6732	156.8721	111.9884	81.1413	59.7011	44.5439	33.6484	25.7076	19.7478
0.28	919.8986	602.8119	451.9254	316.644	221.3983	155.9769	111.3385	80.6712	59.3555	44.2898	33.4485	25.548	19.6185
0.3	933.6134	609.9848	449.2306	314.7574	220.082	155.0464	110.6746	80.1927	59.0186	44.0434	33.2532	25.3908	19.4899
0.32	946.6277	616.7724	446.4708	312.8247	218.7274	154.0927	110.0046	79.6965	58.6371	43.7569	33.068	25.2406	19.366
0.34	959.018	623.2177	443.6977	310.8822	217.3675	153.1342	109.3102	79.2032	58.2733	43.4736	32.8553	25.1022	19.2508
0.36	970.8484	629.3567	440.9245	308.9387	216.0136	152.175	108.6251	78.7046	57.9221	43.2097	32.6284	24.9625	19.1457
0.38	982.1733	635.2197	438.1736	307.0127	214.6604	151.2245	107.9581	78.2151	57.5413	42.9596	32.418	24.7757	19.052
0.4	993.0392	640.8327	435.4542	305.1067	213.3287	150.2849	107.2784	77.728	57.1922	42.6664	32.226	24.6015	18.9395
0.42	1003.4864	646.2181	432.7831	303.2326	212.0255	149.3612	106.6179	77.2502	56.8454	42.3982	32.0536	24.4421	18.7898
0.44	1013.5499	651.3954	430.1638	301.3958	210.7368	148.4561	105.986	76.7848	56.4857	42.1562	31.8476	24.2979	18.6512
0.46	1023.2602	656.3814	427.5996	299.6001	209.4793	147.5715	105.3406	76.3214	56.1611	41.9167	31.6343	24.1691	18.5246
0.48	1032.6443	661.1912	425.099	297.8488	208.2548	146.7093	104.7258	75.8858	55.8336	41.6457	31.441	24.0548	18.4101
0.5	1041.7262	665.8378	422.6548	296.1379	207.0629	145.8709	104.1291	75.4352	55.4971	41.4009	31.2674	23.9163	18.3073
0.6	1083.2731	686.9949	411.3527	288.2176	201.5187	141.9743	101.3355	73.4156	54.0385	40.2938	30.4165	23.2303	17.8667
0.7	1119.6906	705.4089	401.4388	281.2708	196.6627	138.54	98.9034	71.6466	52.7127	39.3174	29.6916	22.6637	17.364
0.8	1152.225	721.7598	392.7002	275.1493	192.3801	135.523	96.7412	70.0997	51.5555	38.4535	29.0736	22.1768	17.0583
0.9	1181.7062	736.4977	384.9356	269.7044	188.5741	132.8493	94.8313	68.6997	50.533	37.7015	28.4485	21.7347	16.6593
1.0	1208.7166	749.9367	377.974	264.828	185.1672	130.4381	93.1177	67.4501	49.6199	37.0494	28.0035	21.3136	16.3306
1.1	1233.682	762.3054	371.6782	260.4163	182.0876	128.2693	91.5547	66.3288	48.8067	36.3879	27.462	21.0321	16.1108
1.2	1256.9236	773.7756	365.9586	256.4058	179.2778	126.2928	90.1543	65.3072	48.0674	35.8576	27.0851	20.638	15.8896
1.3	1278.6902	784.4799	360.7116	252.7337	176.7089	124.4802	88.8646	64.368	47.3483	35.314	26.6593	20.3274	15.5806
1.4	1299.1789	776.6646	355.8858	249.3492	174.342	122.821	87.6642	63.5038	46.7215	34.8714	26.2944	20.1037	15.3548
1.5	1318.5483	766.9121	351.4125	246.2195	172.1568	121.2738	86.5599	62.7125	46.144	34.3955	26.0264	19.8575	15.1888
1.6	1336.9286	757.8427	347.2582	243.3063	170.1221	119.8449	85.5353	61.9977	45.5777	34.0389	25.6589	19.5628	15.0655
1.7	1354.4275	749.3724	343.3762	240.5861	168.2175	118.4962	84.5794	61.2753	45.095	33.6104	25.3582	19.3373	14.9121
1.8	1371.1357	741.4377	339.7415	238.0457	166.4322	117.2456	83.6865	60.6226	44.5894	33.2582	25.1263	19.1636	14.6795
1.9	1387.1298	733.981	336.3226	235.6439	164.7612	116.0747	82.8538	60.0396	44.1577	32.9719	24.8901	19.0287	14.4961
2.0	1402.4759	726.9473	333.103	233.3853	163.1836	114.9654	82.0654	59.4333	43.7255	32.5996	24.5991	18.8024	14.3505
2.1	1417.2305	720.295	330.0567	231.2519	161.6873	113.91	81.298	58.9156	43.3166	32.3014	24.3659	18.5847	14.2344
2.2	1431.4432	713.9959	327.1668	229.229	160.2731	112.9135	80.5836	58.3742	42.9803	32.0613	24.178	18.4085	14.141
2.3	1445.1572	708.0082	324.4202	227.3052	158.937	111.9704	79.9271	57.9092	42.5732	31.7655	24.0255	18.265	14.0655
2.4	1458.4105	702.3072	321.8115	225.4741	157.6481	111.0661	79.2678	57.4163	42.2389	31.4844	23.7901	18.1476	14.004
2.5	1471.2368	696.872	319.3185	223.7309	156.4264	110.1982	78.6517	57.0086	41.9427	31.2518	23.5711	18.0509	13.8317
2.6	1483.6663	691.6772	316.9434	222.0686	155.2632	109.3707	78.0815	56.5462	41.5895	31.0585	23.3886	17.9205	13.6786
2.7	1495.7258	686.7068	314.6609	220.4652	154.1511	108.5841	77.5005	56.1559	41.2933	30.8152	23.2357	17.7374	13.5497
2.8	1507.4394	681.9445	312.4769	218.9437	153.0846	107.8398	76.9906	55.761	41.0437	30.5706	23.107	17.5825	13.4408
2.9	1518.8288	677.3682	310.3814	217.4669	152.0591	107.1181	76.4458	55.3754	40.7391	30.3629	22.9959	17.4508	13.3483
3.0	1529.9138	672.9758	308.3675	216.0636	151.0717	106.4114	75.9765	55.047	40.4585	30.1861	22.7922	17.3386	13.2696
3.1	1540.7122	668.7431	306.4285	214.6991	150.1196	105.7473	75.4714	54.674	40.218	30.0348	22.6172	17.2425	13.2022
3.2	1551.2404	664.6658	304.5603	213.3888	149.2009	105.1095	75.0366	54.3369	40.0113	29.8254	22.4664	17.16	13.1444
3.3	1561.5133	660.7341	302.7605	212.1316	148.3148	104.4747	74.5677	54.0457	39.7363	29.6191	22.336	17.0888	13.0946
3.4	1571.5445	656.9396	301.0256	210.9144	147.4606	103.8877	74.1519	53.71	39.4917	29.4399	22.2229	17.0272	13.0515
3.5	1581.3465	653.2671	299.3376	209.7309	146.6378	103.2968	73.7308	53.4012	39.2785	29.2836	22.1245	16.9233	13.0141
3.6	1590.9309	649.7164	297.7112	208.5887	145.8471	102.7373	73.3253	53.1313	39.0921	29.1471	22.0386	16.7865	12.9254
3.7	1600.3085	646.278	296.1382	207.4843	145.0784	102.1957	72.9608	52.851	38.8862	29.0275	21.9159	16.6662	12.8095
3.8	1609.489	642.9484	294.6076	206.4147	144.3211	101.6636	72.5583	52.5564	38.6562	28.8539	21.7638	16.5601	12.707
3.9	1618.4817	639.7143	293.1304	205.3775	143.5943	101.1596	72.2026	52.2962	38.4528	28.6791	21.6292	16.4662	12.6163
4.0	1627.2951	636.5762	291.69	204.3703	142.8997	100.6559	71.8551	52.0656	38.2727	28.524	21.5098	16.383	12.5357

